#          \hbar \omega(eV)    Oscillator strength
       0.000000000000000E+00  0.000000000000000E+00
       0.100000000000000E-01  0.216366128916851E-06
       0.200000000000000E-01  0.865472896975272E-06
       0.300000000000000E-01  0.194734544884021E-05
       0.400000000000000E-01  0.346202569475792E-05
       0.500000000000000E-01  0.540957231426324E-05
       0.600000000000000E-01  0.779006076137089E-05
       0.700000000000000E-01  0.106035832712510E-04
       0.800000000000000E-01  0.138502488683904E-04
       0.900000000000000E-01  0.175301833762412E-04
       0.100000000000000E+00  0.216435294283572E-04
       0.110000000000000E+00  0.261904464810203E-04
       0.120000000000000E+00  0.311711108273605E-04
       0.130000000000000E+00  0.365857156129682E-04
       0.140000000000000E+00  0.424344708530046E-04
       0.150000000000000E+00  0.487176034508125E-04
       0.160000000000000E+00  0.554353572180261E-04
       0.170000000000000E+00  0.625879928961912E-04
       0.180000000000000E+00  0.701757881798901E-04
       0.190000000000000E+00  0.781990377413819E-04
       0.200000000000000E+00  0.866580532567574E-04
       0.210000000000000E+00  0.955531634336171E-04
       0.220000000000000E+00  0.104884714040272E-03
       0.230000000000000E+00  0.114653067936472E-03
       0.240000000000000E+00  0.124858605105679E-03
       0.250000000000000E+00  0.135501722688862E-03
       0.260000000000000E+00  0.146582835019855E-03
       0.270000000000000E+00  0.158102373662252E-03
       0.280000000000000E+00  0.170060787447871E-03
       0.290000000000000E+00  0.182458542516766E-03
       0.300000000000000E+00  0.195296122358815E-03
       0.310000000000000E+00  0.208574027856892E-03
       0.320000000000000E+00  0.222292777331600E-03
       0.330000000000000E+00  0.236452906587619E-03
       0.340000000000000E+00  0.251054968961624E-03
       0.350000000000000E+00  0.266099535371835E-03
       0.360000000000000E+00  0.281587194369149E-03
       0.370000000000000E+00  0.297518552189925E-03
       0.380000000000000E+00  0.313894232810367E-03
       0.390000000000000E+00  0.330714878002569E-03
       0.400000000000000E+00  0.347981147392185E-03
       0.410000000000000E+00  0.365693718517779E-03
       0.420000000000000E+00  0.383853286891814E-03
       0.430000000000000E+00  0.402460566063335E-03
       0.440000000000000E+00  0.421516287682330E-03
       0.450000000000000E+00  0.441021201565786E-03
       0.460000000000000E+00  0.460976075765451E-03
       0.470000000000000E+00  0.481381696637315E-03
       0.480000000000000E+00  0.502238868912817E-03
       0.490000000000000E+00  0.523548415771792E-03
       0.500000000000000E+00  0.545311178917170E-03
       0.510000000000000E+00  0.567528018651438E-03
       0.520000000000000E+00  0.590199813954877E-03
       0.530000000000000E+00  0.613327462565593E-03
       0.540000000000000E+00  0.636911881061338E-03
       0.550000000000000E+00  0.660954004943155E-03
       0.560000000000000E+00  0.685454788720856E-03
       0.570000000000000E+00  0.710415206000329E-03
       0.580000000000000E+00  0.735836249572707E-03
       0.590000000000000E+00  0.761718931505418E-03
       0.600000000000000E+00  0.788064283235111E-03
       0.610000000000000E+00  0.814873355662478E-03
       0.620000000000000E+00  0.842147219249012E-03
       0.630000000000000E+00  0.869886964115683E-03
       0.640000000000000E+00  0.898093700143568E-03
       0.650000000000000E+00  0.926768557076441E-03
       0.660000000000000E+00  0.955912684625364E-03
       0.670000000000000E+00  0.985527252575257E-03
       0.680000000000000E+00  0.101561345089350E-02
       0.690000000000000E+00  0.104617248984055E-02
       0.700000000000000E+00  0.107720560008267E-02
       0.710000000000000E+00  0.110871403280665E-02
       0.720000000000000E+00  0.114069905983666E-02
       0.730000000000000E+00  0.117316197375326E-02
       0.740000000000000E+00  0.120610408801446E-02
       0.750000000000000E+00  0.123952673707898E-02
       0.760000000000000E+00  0.127343127653167E-02
       0.770000000000000E+00  0.130781908321117E-02
       0.780000000000000E+00  0.134269155533966E-02
       0.790000000000000E+00  0.137805011265505E-02
       0.800000000000000E+00  0.141389619654521E-02
       0.810000000000000E+00  0.145023127018463E-02
       0.820000000000001E+00  0.148705681867338E-02
       0.830000000000001E+00  0.152437434917831E-02
       0.840000000000001E+00  0.156218539107670E-02
       0.850000000000001E+00  0.160049149610221E-02
       0.860000000000001E+00  0.163929423849333E-02
       0.870000000000001E+00  0.167859521514416E-02
       0.880000000000001E+00  0.171839604575772E-02
       0.890000000000001E+00  0.175869837300172E-02
       0.900000000000001E+00  0.179950386266679E-02
       0.910000000000001E+00  0.184081420382735E-02
       0.920000000000001E+00  0.188263110900495E-02
       0.930000000000001E+00  0.192495631433428E-02
       0.940000000000001E+00  0.196779157973172E-02
       0.950000000000001E+00  0.201113868906663E-02
       0.960000000000001E+00  0.205499945033526E-02
       0.970000000000001E+00  0.209937569583743E-02
       0.980000000000001E+00  0.214426928235584E-02
       0.990000000000001E+00  0.218968209133836E-02
       0.100000000000000E+01  0.223561602908292E-02
       0.101000000000000E+01  0.228207302692533E-02
       0.102000000000000E+01  0.232905504143005E-02
       0.103000000000000E+01  0.237656405458371E-02
       0.104000000000000E+01  0.242460207399172E-02
       0.105000000000000E+01  0.247317113307778E-02
       0.106000000000000E+01  0.252227329128643E-02
       0.107000000000000E+01  0.257191063428868E-02
       0.108000000000000E+01  0.262208527419062E-02
       0.109000000000000E+01  0.267279934974537E-02
       0.110000000000000E+01  0.272405502656794E-02
       0.111000000000000E+01  0.277585449735348E-02
       0.112000000000000E+01  0.282819998209878E-02
       0.113000000000000E+01  0.288109372832685E-02
       0.114000000000000E+01  0.293453801131514E-02
       0.115000000000000E+01  0.298853513432684E-02
       0.116000000000000E+01  0.304308742884580E-02
       0.117000000000000E+01  0.309819725481479E-02
       0.118000000000000E+01  0.315386700087730E-02
       0.119000000000000E+01  0.321009908462292E-02
       0.120000000000000E+01  0.326689595283626E-02
       0.121000000000000E+01  0.332426008174950E-02
       0.122000000000000E+01  0.338219397729871E-02
       0.123000000000000E+01  0.344070017538384E-02
       0.124000000000000E+01  0.349978124213247E-02
       0.125000000000000E+01  0.355943977416753E-02
       0.126000000000000E+01  0.361967839887870E-02
       0.127000000000000E+01  0.368049977469793E-02
       0.128000000000000E+01  0.374190659137888E-02
       0.129000000000000E+01  0.380390157028039E-02
       0.130000000000000E+01  0.386648746465409E-02
       0.131000000000000E+01  0.392966705993611E-02
       0.132000000000000E+01  0.399344317404312E-02
       0.133000000000000E+01  0.405781865767244E-02
       0.134000000000000E+01  0.412279639460674E-02
       0.135000000000000E+01  0.418837930202285E-02
       0.136000000000000E+01  0.425457033080524E-02
       0.137000000000000E+01  0.432137246586399E-02
       0.138000000000000E+01  0.438878872645705E-02
       0.139000000000000E+01  0.445682216651769E-02
       0.140000000000000E+01  0.452547587498607E-02
       0.141000000000000E+01  0.459475297614591E-02
       0.142000000000000E+01  0.466465662996599E-02
       0.143000000000000E+01  0.473519003244646E-02
       0.144000000000000E+01  0.480635641597010E-02
       0.145000000000000E+01  0.487815904965884E-02
       0.146000000000000E+01  0.495060123973506E-02
       0.147000000000000E+01  0.502368632988844E-02
       0.148000000000000E+01  0.509741770164785E-02
       0.149000000000000E+01  0.517179877475864E-02
       0.150000000000000E+01  0.524683300756537E-02
       0.151000000000000E+01  0.532252389740007E-02
       0.152000000000000E+01  0.539887498097604E-02
       0.153000000000000E+01  0.547588983478726E-02
       0.154000000000000E+01  0.555357207551378E-02
       0.155000000000000E+01  0.563192536043258E-02
       0.156000000000000E+01  0.571095338783466E-02
       0.157000000000000E+01  0.579065989744810E-02
       0.158000000000000E+01  0.587104867086694E-02
       0.159000000000000E+01  0.595212353198669E-02
       0.160000000000000E+01  0.603388834744570E-02
       0.161000000000000E+01  0.611634702707320E-02
       0.162000000000000E+01  0.619950352434369E-02
       0.163000000000000E+01  0.628336183683790E-02
       0.164000000000000E+01  0.636792600671045E-02
       0.165000000000000E+01  0.645320012116427E-02
       0.166000000000000E+01  0.653918831293191E-02
       0.167000000000000E+01  0.662589476076376E-02
       0.168000000000000E+01  0.671332368992352E-02
       0.169000000000000E+01  0.680147937269065E-02
       0.170000000000000E+01  0.689036612887036E-02
       0.171000000000000E+01  0.697998832631079E-02
       0.172000000000000E+01  0.707035038142790E-02
       0.173000000000000E+01  0.716145675973793E-02
       0.174000000000000E+01  0.725331197639769E-02
       0.175000000000000E+01  0.734592059675273E-02
       0.176000000000000E+01  0.743928723689341E-02
       0.177000000000000E+01  0.753341656421931E-02
       0.178000000000000E+01  0.762831329801182E-02
       0.179000000000000E+01  0.772398221001508E-02
       0.180000000000000E+01  0.782042812502559E-02
       0.181000000000000E+01  0.791765592149036E-02
       0.182000000000000E+01  0.801567053211397E-02
       0.183000000000000E+01  0.811447694447451E-02
       0.184000000000000E+01  0.821408020164868E-02
       0.185000000000000E+01  0.831448540284617E-02
       0.186000000000000E+01  0.841569770405324E-02
       0.187000000000000E+01  0.851772231868608E-02
       0.188000000000000E+01  0.862056451825372E-02
       0.189000000000000E+01  0.872422963303091E-02
       0.190000000000000E+01  0.882872305274073E-02
       0.191000000000000E+01  0.893405022724795E-02
       0.192000000000000E+01  0.904021666726215E-02
       0.193000000000000E+01  0.914722794505160E-02
       0.194000000000000E+01  0.925508969516799E-02
       0.195000000000000E+01  0.936380761518157E-02
       0.196000000000000E+01  0.947338746642802E-02
       0.197000000000000E+01  0.958383507476587E-02
       0.198000000000000E+01  0.969515633134573E-02
       0.199000000000000E+01  0.980735719339099E-02
       0.200000000000000E+01  0.992044368499040E-02
       0.201000000000000E+01  0.100344218979027E-01
       0.202000000000000E+01  0.101492979923730E-01
       0.203000000000000E+01  0.102650781979625E-01
       0.204000000000000E+01  0.103817688143897E-01
       0.205000000000000E+01  0.104993762123854E-01
       0.206000000000000E+01  0.106179068345598E-01
       0.207000000000000E+01  0.107373671962841E-01
       0.208000000000000E+01  0.108577638865845E-01
       0.209000000000000E+01  0.109791035690503E-01
       0.210000000000000E+01  0.111013929827561E-01
       0.211000000000000E+01  0.112246389431979E-01
       0.212000000000000E+01  0.113488483432442E-01
       0.213000000000000E+01  0.114740281541012E-01
       0.214000000000000E+01  0.116001854262929E-01
       0.215000000000000E+01  0.117273272906571E-01
       0.216000000000000E+01  0.118554609593565E-01
       0.217000000000000E+01  0.119845937269048E-01
       0.218000000000000E+01  0.121147329712107E-01
       0.219000000000000E+01  0.122458861546356E-01
       0.220000000000000E+01  0.123780608250705E-01
       0.221000000000000E+01  0.125112646170278E-01
       0.222000000000000E+01  0.126455052527515E-01
       0.223000000000000E+01  0.127807905433440E-01
       0.224000000000000E+01  0.129171283899115E-01
       0.225000000000000E+01  0.130545267847269E-01
       0.226000000000000E+01  0.131929938124114E-01
       0.227000000000000E+01  0.133325376511348E-01
       0.228000000000000E+01  0.134731665738347E-01
       0.229000000000000E+01  0.136148889494556E-01
       0.229999999999999E+01  0.137577132442074E-01
       0.230999999999999E+01  0.139016480228441E-01
       0.231999999999999E+01  0.140467019499631E-01
       0.232999999999999E+01  0.141928837913250E-01
       0.233999999999999E+01  0.143402024151957E-01
       0.234999999999999E+01  0.144886667937088E-01
       0.235999999999999E+01  0.146382860042508E-01
       0.236999999999999E+01  0.147890692308689E-01
       0.237999999999999E+01  0.149410257657008E-01
       0.238999999999999E+01  0.150941650104292E-01
       0.239999999999999E+01  0.152484964777583E-01
       0.240999999999999E+01  0.154040297929156E-01
       0.241999999999999E+01  0.155607746951783E-01
       0.242999999999999E+01  0.157187410394240E-01
       0.243999999999999E+01  0.158779387977074E-01
       0.244999999999999E+01  0.160383780608633E-01
       0.245999999999999E+01  0.162000690401355E-01
       0.246999999999999E+01  0.163630220688326E-01
       0.247999999999999E+01  0.165272476040122E-01
       0.248999999999999E+01  0.166927562281919E-01
       0.249999999999999E+01  0.168595586510899E-01
       0.250999999999999E+01  0.170276657113940E-01
       0.251999999999999E+01  0.171970883785604E-01
       0.252999999999999E+01  0.173678377546426E-01
       0.253999999999999E+01  0.175399250761514E-01
       0.254999999999999E+01  0.177133617159460E-01
       0.255999999999999E+01  0.178881591851573E-01
       0.256999999999999E+01  0.180643291351429E-01
       0.257999999999999E+01  0.182418833594769E-01
       0.258999999999999E+01  0.184208337959718E-01
       0.259999999999999E+01  0.186011925287366E-01
       0.260999999999999E+01  0.187829717902684E-01
       0.261999999999999E+01  0.189661839635812E-01
       0.262999999999999E+01  0.191508415843705E-01
       0.263999999999999E+01  0.193369573432156E-01
       0.264999999999999E+01  0.195245440878196E-01
       0.265999999999999E+01  0.197136148252884E-01
       0.266999999999999E+01  0.199041827244489E-01
       0.267999999999999E+01  0.200962611182082E-01
       0.268999999999999E+01  0.202898635059529E-01
       0.269999999999999E+01  0.204850035559914E-01
       0.270999999999999E+01  0.206816951080380E-01
       0.271999999999999E+01  0.208799521757412E-01
       0.272999999999999E+01  0.210797889492566E-01
       0.273999999999999E+01  0.212812197978649E-01
       0.274999999999999E+01  0.214842592726357E-01
       0.275999999999999E+01  0.216889221091398E-01
       0.276999999999998E+01  0.218952232302091E-01
       0.277999999999998E+01  0.221031777487448E-01
       0.278999999999998E+01  0.223128009705774E-01
       0.279999999999998E+01  0.225241083973763E-01
       0.280999999999998E+01  0.227371157296136E-01
       0.281999999999998E+01  0.229518388695788E-01
       0.282999999999998E+01  0.231682939244503E-01
       0.283999999999998E+01  0.233864972094206E-01
       0.284999999999998E+01  0.236064652508793E-01
       0.285999999999998E+01  0.238282147896539E-01
       0.286999999999998E+01  0.240517627843093E-01
       0.287999999999998E+01  0.242771264145074E-01
       0.288999999999998E+01  0.245043230844294E-01
       0.289999999999998E+01  0.247333704262597E-01
       0.290999999999998E+01  0.249642863037350E-01
       0.291999999999998E+01  0.251970888157580E-01
       0.292999999999998E+01  0.254317963000790E-01
       0.293999999999998E+01  0.256684273370458E-01
       0.294999999999998E+01  0.259070007534218E-01
       0.295999999999998E+01  0.261475356262781E-01
       0.296999999999998E+01  0.263900512869563E-01
       0.297999999999998E+01  0.266345673251064E-01
       0.298999999999998E+01  0.268811035928010E-01
       0.299999999999998E+01  0.271296802087269E-01
       0.300999999999998E+01  0.273803175624557E-01
       0.301999999999998E+01  0.276330363187958E-01
       0.302999999999998E+01  0.278878574222278E-01
       0.303999999999998E+01  0.281448021014226E-01
       0.304999999999998E+01  0.284038918738485E-01
       0.305999999999998E+01  0.286651485504647E-01
       0.306999999999998E+01  0.289285942405059E-01
       0.307999999999998E+01  0.291942513563596E-01
       0.308999999999998E+01  0.294621426185361E-01
       0.309999999999998E+01  0.297322910607375E-01
       0.310999999999998E+01  0.300047200350227E-01
       0.311999999999998E+01  0.302794532170755E-01
       0.312999999999998E+01  0.305565146115729E-01
       0.313999999999998E+01  0.308359285576628E-01
       0.314999999999998E+01  0.311177197345445E-01
       0.315999999999998E+01  0.314019131671639E-01
       0.316999999999998E+01  0.316885342320183E-01
       0.317999999999998E+01  0.319776086630783E-01
       0.318999999999998E+01  0.322691625578261E-01
       0.319999999999998E+01  0.325632223834146E-01
       0.320999999999998E+01  0.328598149829510E-01
       0.321999999999998E+01  0.331589675819056E-01
       0.322999999999998E+01  0.334607077946487E-01
       0.323999999999997E+01  0.337650636311218E-01
       0.324999999999997E+01  0.340720635036411E-01
       0.325999999999997E+01  0.343817362338423E-01
       0.326999999999997E+01  0.346941110597637E-01
       0.327999999999997E+01  0.350092176430761E-01
       0.328999999999997E+01  0.353270860764607E-01
       0.329999999999997E+01  0.356477468911376E-01
       0.330999999999997E+01  0.359712310645503E-01
       0.331999999999997E+01  0.362975700282084E-01
       0.332999999999997E+01  0.366267956756947E-01
       0.333999999999997E+01  0.369589403708359E-01
       0.334999999999997E+01  0.372940369560464E-01
       0.335999999999997E+01  0.376321187608457E-01
       0.336999999999997E+01  0.379732196105538E-01
       0.337999999999997E+01  0.383173738351719E-01
       0.338999999999997E+01  0.386646162784476E-01
       0.339999999999997E+01  0.390149823071352E-01
       0.340999999999997E+01  0.393685078204502E-01
       0.341999999999997E+01  0.397252292597274E-01
       0.342999999999997E+01  0.400851836182838E-01
       0.343999999999997E+01  0.404484084514947E-01
       0.344999999999997E+01  0.408149418870849E-01
       0.345999999999997E+01  0.411848226356432E-01
       0.346999999999997E+01  0.415580900013644E-01
       0.347999999999997E+01  0.419347838930240E-01
       0.348999999999997E+01  0.423149448351934E-01
       0.349999999999997E+01  0.426986139796974E-01
       0.350999999999997E+01  0.430858331173272E-01
       0.351999999999997E+01  0.434766446898071E-01
       0.352999999999997E+01  0.438710918020271E-01
       0.353999999999997E+01  0.442692182345471E-01
       0.354999999999997E+01  0.446710684563771E-01
       0.355999999999997E+01  0.450766876380428E-01
       0.356999999999997E+01  0.454861216649448E-01
       0.357999999999997E+01  0.458994171510144E-01
       0.358999999999997E+01  0.463166214526802E-01
       0.359999999999997E+01  0.467377826831475E-01
       0.360999999999997E+01  0.471629497270020E-01
       0.361999999999997E+01  0.475921722551458E-01
       0.362999999999997E+01  0.480255007400739E-01
       0.363999999999997E+01  0.484629864714993E-01
       0.364999999999997E+01  0.489046815723383E-01
       0.365999999999997E+01  0.493506390150629E-01
       0.366999999999997E+01  0.498009126384317E-01
       0.367999999999997E+01  0.502555571646085E-01
       0.368999999999997E+01  0.507146282166796E-01
       0.369999999999997E+01  0.511781823365800E-01
       0.370999999999996E+01  0.516462770034393E-01
       0.371999999999996E+01  0.521189706523598E-01
       0.372999999999996E+01  0.525963226936362E-01
       0.373999999999996E+01  0.530783935324319E-01
       0.374999999999996E+01  0.535652445889220E-01
       0.375999999999996E+01  0.540569383189158E-01
       0.376999999999996E+01  0.545535382349743E-01
       0.377999999999996E+01  0.550551089280332E-01
       0.378999999999996E+01  0.555617160895473E-01
       0.379999999999996E+01  0.560734265341720E-01
       0.380999999999996E+01  0.565903082229908E-01
       0.381999999999996E+01  0.571124302873146E-01
